"Latest: Time (s)","Latest: Temperature (°C)"
0,24.7350070955
0.5,24.7582053286
1,24.7741538115
1.5,24.7901020523
2,24.8132990691
2.5,24.8422946489
3,24.8669403036
3.5,24.89303513
4,24.9147803804
4.5,24.942323808
5,24.9582697259
5.5,24.9771146458
6,24.9988584478
6.5,25.0177027917
7,25.0350973417
7.5,25.0553907124
8,25.0713353038
8.5,25.0843807505
9,25.1032239746
9.5,25.120617516
10,25.1307636601
10.5,25.1467074721
11,25.1612017127
11.5,25.1771452337
12,25.1887404292
12.5,25.2032343164
13,25.2177280873
13.5,25.2278736592
14,25.2394685316
14.5,25.2539620239
15,25.272803405
15.5,25.2872966565
16,25.3032391177
16.5,25.3206307599
17,25.3336744029
17.5,25.3510658125
18,25.3684570958
18.5,25.3887467733
19,25.4017900538
19.5,25.4177317557
20,25.4293256636
20.5,25.4438179835
21,25.4568610117
21.5,25.4655563336
22,25.4757008459
22.5,25.4829469071
23,25.4887437448
23.5,25.4872945363
24,25.4945405728
24.5,25.4945405728
25,25.4988881875
25.5,25.4988881875
26,25.5017865943
26.5,25.5003373912
27,25.5003373912
27.5,25.5017865943
28,25.5017865943
28.5,25.5017865943
29,25.5017865943
29.5,25.4974389832
30,25.4959897783
30.5,25.4930913667
31,25.49164216
31.5,25.4887437448
32,25.4858453272
32.5,25.4843961175
33,25.4771500594
33.5,25.4699039856
34,25.4670055516
34.5,25.4612086756
35,25.4539625658
35.5,25.4423687547
36,25.439470295
36.5,25.4322241333
37,25.4235287155
37.5,25.4148332712
38,25.4046885519
38.5,25.3988915526
39,25.3858482578
39.5,25.3742541631
40,25.3641092865
40.5,25.3510658125
41,25.3394715537
41.5,25.3264279438
42,25.3177321624
42.5,25.3046884265
43,25.2872966565
43.5,25.2786007178
44,25.2626580679
44.5,25.2496139875
45,25.2351204627
45.5,25.2191774581
46,25.2032343164
46.5,25.1858416375
47,25.1698981972
47.5,25.1510557575
48,25.136561428
48.5,25.1220669691
49,25.1003250321
49.5,25.0872797232
50,25.0655372906
50.5,25.0510421572
51,25.0278496389
51.5,25.0119045598
52,24.9930601354
52.5,24.9756650463
53,24.9510216062
53.5,24.9336259496
54,24.9118810363
54.5,24.8959345195
55,24.8698397576
55.5,24.8509931762
56,24.8277969538
56.5,24.8074998615
57,24.7814030416
57.5,24.7582053286
58,24.7408067032
58.5,24.7147082058
59,24.6973088276
59.5,24.671209178
60,24.6509089581
60.5,24.6233579554
61,24.6030566874
61.5,24.5798546772
62,24.5537516866
62.5,24.5319985931
63,24.504443874
63.5,24.4812391927
64,24.4536827766
64.5,24.4319270418
65,24.4058193658
65.5,24.3826118025
66,24.3565024459
66.5,24.3347439515
67,24.3100835452
67.5,24.2825209183
68,24.2549572206
68.5,24.2288432384
69,24.2027282609
69.5,24.1766122714
70,24.147593298
70.5,24.1258282207
71,24.0939047715
71.5,24.0677843853
72,24.0416629006
72.5,24.014089012
73,23.9865138612
73.5,23.9647431007
74,23.9357141602
74.5,23.908135314
75,23.8776518736
75.5,23.8500701871
76,23.8239388958
76.5,23.796354504
77,23.7673167693
77.5,23.7353734182
78,23.7092364924
78.5,23.6845503977
79,23.6526019036
79.5,23.6221037109
80,23.5945084836
80.5,23.5727216742
81,23.5407659035
81.5,23.510260664
82,23.4826589761
82.5,23.4565084919
83,23.4245447597
83.5,23.3969378996
84,23.3649699283
84.5,23.3417190396
85,23.3112003667
85.5,23.280679533
86,23.2516100387
86.5,23.2268993907
87,23.1963724484
87.5,23.1672970668
88,23.1367656815
88.5,23.107686019
89,23.0800583728
89.5,23.0495202988
90,23.0204341939
90.5,22.9928003619
91,22.9593462022
91.5,22.9258890747
92,22.8924289435
92.5,22.853145778
93,22.8138583654
93.5,22.7818432192
94,22.7527360339
94.5,22.7236264365
95,22.6959700633
95.5,22.6683114714
96,22.6391947448
96.5,22.6100755136
97,22.5765852703
97.5,22.5474605733
98,22.5212461409
98.5,22.4921165219
99,22.4644409527
99.5,22.4323925699
100,22.4047118184
100.5,22.3784857036
101,22.3449713501
101.5,22.3172828422
102,22.2866768463
102.5,22.2589830535
103,22.2327444839
103.5,22.2050457211
104,22.1729702417
104.5,22.1452658802
105,22.1175588915
105.5,22.0898492548
106,22.0606783328
106.5,22.0300456558
107,22.0023275211
107.5,21.971688506
108,21.9454238133
108.5,21.9147785205
109,21.8855893477
109.5,21.8578567377
110,21.828661445
110.5,21.7994629779
111,21.7717214716
111.5,21.7468976597
112,21.7191506261
112.5,21.6870187981
113,21.6621869309
113.5,21.6344308335
114,21.6052106349
114.5,21.5730645326
115,21.5467601279
115.5,21.5233761159
116,21.4912195119
116.5,21.4619826058
117,21.4327422173
117.5,21.4108096257
118,21.3771757965
118.5,21.356700732
119,21.3289103437
119.5,21.3025796149
120,21.2733198123
120.5,21.2425930991
121,21.2177161323
121.5,21.1899093084
122,21.1620991332
122.5,21.1342855855
123,21.1050044998
123.5,21.0757196286
124,21.0522889891
124.5,21.0259265885
125,20.996631371
125.5,20.9731924057
126,20.943890189
126.5,20.9189802208
127,20.8882051469
127.5,20.8632887862
128,20.8369036125
128.5,20.8090490667
129,20.7811908751
129.5,20.7577285016
130,20.7239967573
130.5,20.6990611045
131,20.6726553921
131.5,20.6462463121
132,20.6227687323
132.5,20.5963532406
133,20.5714021352
133.5,20.543511975
134,20.5156179613
134.5,20.4921252608
135,20.4656926714
135.5,20.4436628305
136,20.4142858953
136.5,20.386373748
137,20.362865698
137.5,20.3349462072
138,20.3084924575
138.5,20.2864448978
139,20.2614546068
139.5,20.2379313523
140,20.2114642195
140.5,20.1849933928
141,20.1629315351
141.5,20.1379249657
142,20.1070298822
142.5,20.0834873298
143,20.0584700902
143.5,20.0319775504
144,20.0113695999
144.5,19.9760362795
145,19.9451139928
145.5,19.9024030881
146,19.8758877644
146.5,19.8346338774
147,19.8125296392
147.5,19.7845269678
148,19.762416448
148.5,19.7388288186
149,19.7137634697
149.5,19.6931187044
150,19.6665718182
150.5,19.6385456713
151,19.6119903642
151.5,19.5913333847
152,19.5588673517
152.5,19.5411559864
153,19.517537943
153.5,19.4924401396
154,19.4702918983
154.5,19.4466638696
155,19.4259865921
155.5,19.3964431492
156,19.3742820974
156.5,19.3521180593
157,19.3225613434
157.5,19.3033466074
158,19.2796945841
158.5,19.2575176765
159,19.2353377226
159.5,19.2072387236
160,19.188010254
160.5,19.1628618383
161,19.13918911
161.5,19.1155128465
162,19.0977533205
162.5,19.0725905631
163,19.0503847796
163.5,19.0237336764
164,18.998559003
164.5,18.9778238529
165,18.9556045361
165.5,18.9348636182
166,18.9141199014
166.5,18.8874452805
167,18.8652128692
167.5,18.8414947152
168,18.8207382868
168.5,18.797013163
169,18.7762506142
169.5,18.75400184
170,18.7317497583
170.5,18.7124619363
171,18.691687639
171.5,18.6694262342
172,18.6456770408
172.5,18.6234086957
173,18.598167156
173.5,18.5773767374
174,18.5565833566
174.5,18.5387580939
175,18.5135018893
175.5,18.4941853456
176,18.4704075856
176.5,18.4466258921
177,18.4287870321
177.5,18.4079722141
178,18.3871543557
178.5,18.3648461225
179,18.3395592105
179.5,18.3217068992
180,18.3038523248
180.5,18.2800426945
181,18.2547405257
181.5,18.2353887135
182,18.2175231141
182.5,18.1966770089
183,18.1743384128
183.5,18.1549753723
184,18.1326300181
184.5,18.1102810263
185,18.0879283848
185.5,18.0700436358
186,18.0476843945
186.5,18.0283034063
187,18.0119019417
187.5,17.98804171
188,17.9641772506
188.5,17.9477679748
189,17.9268805342
189.5,17.9089744147
190,17.8895734039
190.5,17.8671841037
191,17.844791022
191.5,17.8253806164
192,17.8044739068
192.5,17.7880448752
193,17.7656383345
193.5,17.7462162294
194,17.7267912344
194.5,17.7028795691
195,17.6834480985
195.5,17.6655087685
196,17.6475669477
196.5,17.626631667
197,17.6086844278
197.5,17.5877428083
198,17.5697901209
198.5,17.5533312733
199,17.5338771663
199.5,17.5129232591
200,17.4934629584
200.5,17.4769942115
201,17.4545333652
201.5,17.4380595309
202,17.4200856111
202.5,17.3991127796
203,17.379634857
203.5,17.3601538923
204,17.3406698774
204.5,17.3256800928
205,17.3061906611
205.5,17.2836990364
206,17.2672025708
206.5,17.2477038958
207,17.2282021232
207.5,17.2131986468
208,17.1951920439
208.5,17.1756818909
209,17.15616861
209.5,17.1381535673
210,17.121637425
210.5,17.0961080389
211,17.0795861445
211.5,17.0645642719
212,17.0435304932
212.5,17.0270013628
213,17.00746399
213.5,16.9879234178
214,16.9743934508
214.5,16.9533437731
215,16.9307863995
215.5,16.9157457607
216,16.8901722746
216.5,16.873621765
217,16.8510491295
217.5,16.8239562257
218,16.7983627133
218.5,16.7817992094
219,16.7622211164
219.5,16.7441460978
220,16.7230550085
220.5,16.7049738664
221,16.6899040812
221.5,16.6703104091
222,16.6537285364
222.5,16.6341286836
223,16.6220655663
223.5,16.6024602817
224,16.5828516233
224.5,16.5662570402
225,16.5481510908
225.5,16.5345697293
226,16.5149493268
226.5,16.4998543882
227,16.4832476193
227.5,16.4666383977
228,16.4485164435
228.5,16.4334125755
229,16.4198173503
229.5,16.4001768798
230,16.3820441421
230.5,16.3639084475
231,16.3487931052
231.5,16.3306519722
232,16.3140199861
232.5,16.2988978243
233,16.2822610495
233.5,16.2625961623
234,16.2489799466
234.5,16.2308223608
235,16.2126617613
235.5,16.1990393298
236,16.1823873798
236.5,16.1611903035
237,16.1490758314
237.5,16.1354454327
238,16.1218133186
238.5,16.1051495118
239,16.0869678796
239.5,16.0718141759
240,16.0536269134
240.5,16.0399844451
241,16.0248241108
241.5,16.0066288752
242,15.9929804152
242.5,15.9778134118
243,15.9596101567
243.5,15.9429211016
244,15.9277469562
244.5,15.9110528863
245,15.8989100901
245.5,15.8806932784
246,15.8670286047
246.5,15.8533621579
247,15.8351374653
247.5,15.8199478044
248,15.8032366342
248.5,15.7865227945
249,15.7698062799
249.5,15.7561271382
250,15.7439663924
250.5,15.7272430444
251,15.708996319
251.5,15.6937882602
252,15.6816202037
252.5,15.6709719788
253,15.6511937888
253.5,15.6390207079
254,15.6238023311
254.5,15.6101038644
255,15.5918363964
255.5,15.5781336569
256,15.5629062372
256.5,15.5461534523
257,15.5339678795
257.5,15.5187338623
258,15.5019738063
258.5,15.4852109822
259,15.4699696445
259.5,15.4577749212
260,15.445578726
260.5,15.4303314091
261,15.4166068514
261.5,15.3998298496
262,15.3845755985
262.5,15.3723705277
263,15.3586380457
263.5,15.3418513413
264,15.3296410574
264.5,15.3159027017
265,15.2991088053
265.5,15.285366236
266,15.273149023
266.5,15.2594028602
267,15.2441271093
267.5,15.2303769172
268,15.2150966818
268.5,15.2043991092
269,15.1875862917
269.5,15.1753569842
270,15.1585392014
270.5,15.1432478069
271,15.1356012151
271.5,15.1187766103
272,15.1050088711
272.5,15.0866488646
273,15.0744069391
273.5,15.0606329325
274,15.0499184672
274.5,15.0315480615
275,15.0162367312
275.5,15.0039859234
276,14.9932651935
276.5,14.9779478006
277,14.9656921351
277.5,14.9534349107
278,14.941176125
278.5,14.9258504441
279,14.9135881376
279.5,14.8967249049
280,14.8844588699
280.5,14.8737247985
281,14.8599220768
281.5,14.8476513143
282,14.8369131009
282.5,14.8169674895
283,14.806225811
283.5,14.7893435738
284,14.7770636944
284.5,14.7678527394
285,14.7494281375
285.5,14.7402144887
286,14.7263923278
286.5,14.7110319928
287,14.7018145883
287.5,14.6864502385
288,14.6726201735
288.5,14.6603250697
289,14.6495655297
289.5,14.6372673971
290,14.6234300633
290.5,14.6080528414
291,14.5972872767
291.5,14.5819057387
292,14.5649831076
292.5,14.557289983
293,14.5480573913
293.5,14.5342067791
294,14.5188147793
294.5,14.5095783495
295,14.4972616728
295.5,14.4849433518
296,14.4710832725
296.5,14.45876145
297,14.4464379761
297.5,14.4387349653
298,14.4248679162
298.5,14.4079164513
299,14.3986688747
299.5,14.3832541683
300,14.3740040958
300.5,14.3632111592
301,14.3447060084
301.5,14.3354520222
302,14.3231119089
302.5,14.3092272773
303,14.301512675
303.5,14.2860815004
304,14.2752781134
304.5,14.2629298052
305,14.2474920462
305.5,14.238228123
306,14.2243304531
306.5,14.2150641482
307,14.2042522528
307.5,14.1888044314
308,14.1779893747
308.5,14.1640823849
309,14.1532643444
309.5,14.142444996
310,14.1285324807
310.5,14.120802369
311,14.108432797
311.5,14.0976080133
312,14.0836885003
312.5,14.0728607063
313,14.0635786898
313.5,14.0465591383
314,14.0388218987
314.5,14.0279886277
315,14.0171540306
315.5,14.0032218834
316,13.9908359074
316.5,13.9815452843
317,13.9660587358
317.5,13.9598633538
318,13.9490203855
318.5,13.93352811
319,13.9211323211
319.5,13.9118343296
320,13.9025353515
320.5,13.8854846589
321,13.8792835828
321.5,13.8668801101
322,13.8513732901
322.5,13.8358637112
323,13.8234540587
323.5,13.8048362584
324,13.7955258615
324.5,13.7800063124
325,13.769140974
325.5,13.7458535112
326,13.7334309648
326.5,13.716347043
327,13.7070271129
327.5,13.6837228719
328,13.6743994065
328.5,13.6588580474
329,13.6495318802
329.5,13.6402046979
330,13.6277668742
330.5,13.6153272416
331,13.6059963288
331.5,13.5904425406
332,13.5873314426
332.5,13.5702183731
333,13.563994586
333.5,13.5515456455
334,13.5437641319
334.5,13.5266422914
335,13.5173016491
335.5,13.5064029317
336,13.4955028114
336.5,13.4892735407
337,13.4768136222
337.5,13.4612361387
338,13.4503301888
338.5,13.4425393606
339,13.4300725362
339.5,13.422279833
340,13.4098100054
340.5,13.3973383264
341,13.3879833507
341.5,13.3786273313
342,13.3708298503
342.5,13.3599121567
343,13.3505529996
343.5,13.3365122987
344,13.3302712294
344.5,13.3193482348
345,13.30686306
345.5,13.2990588754
346,13.2881317876
346.5,13.2756419289
347,13.2693962955
347.5,13.2569036192
348,13.245970984
348.5,13.2381610759
349,13.2241013851
349.5,13.2162894135
350,13.2037887233
350.5,13.1944119641
351,13.1850341395
351.5,13.1725287143
352,13.1631483997
352.5,13.1506396507
353,13.1412568405
353.5,13.1334370136
354,13.1224880049
354.5,13.111537535
355,13.1021502539
355.5,13.0880673148
356,13.0818074529
356.5,13.0692862913
357,13.061459591
357.5,13.0505009501
358,13.0442382087
358.5,13.0348431946
359,13.0207486418
359.5,13.0113509173
360,13.0019521068
360.5,12.9925522093
361,12.9815842867
361.5,12.9706148814
362,12.9612113525
362.5,12.9549417269
363,12.9455363779
363.5,12.9361299354
364,12.9204500984
364.5,12.9141773112
365,12.904767216
365.5,12.8969246313
366,12.890650014
366.5,12.8765303375
367,12.8655466538
367.5,12.8561308734
368,12.8498530733
368.5,12.8388657419
369,12.8294468316
369.5,12.8184567039
370,12.8090353942
370.5,12.7980424644
371,12.7901894465
371.5,12.7823356568
372,12.7681968888
372.5,12.7650546002
373,12.7493412992
373.5,12.7414834866
374,12.7320530876
374.5,12.7210495424
375,12.7131889347
375.5,12.7068998885
376,12.6943203012
376.5,12.6833115258
377,12.6754471786
377.5,12.6644357804
378,12.658142865
378.5,12.6439819743
379,12.6345399705
379.5,12.6266707715
380,12.6188007877
380.5,12.6062071795
381,12.5967606522
381.5,12.5857382709
382,12.5778641957
382.5,12.5684142643
383,12.5589631959
383.5,12.5526618515
384,12.5432088858
384.5,12.5321789851
385,12.5227235483
385.5,12.5132669692
386,12.508538251
386.5,12.4975034628
387,12.4896205169
387.5,12.4817367752
388,12.4691211312
388.5,12.4612353171
389,12.4565034455
389.5,12.442306105
390,12.4344175743
390.5,12.4249502807
391,12.4170599881
391.5,12.4075905785
392,12.394962901
392.5,12.387069558
393,12.3807543046
393.5,12.3728595134
394,12.3602261718
394.5,12.353908727
395,12.3460111946
395.5,12.3349532922
396,12.3254738288
396.5,12.3159932
397,12.3065114047
397.5,12.2986090166
398,12.2907058169
398.5,12.282801805
399,12.2717348227
399.5,12.2638288588
400,12.2575035014
400.5,12.2495960711
401,12.2416878253
401.5,12.2290329338
402,12.2227047037
402.5,12.2116290412
403,12.2037168714
403.5,12.1958038821
404,12.1878900728
404.5,12.1783924183
405,12.1720599915
405.5,12.1609769784
406,12.1530595531
406.5,12.1419737739
407,12.1340543708
407.5,12.1229658201
408,12.1166287786
408.5,12.110291208
409,12.1023685003
409.5,12.0928601582
410,12.0865206007
410.5,12.0770102693
411,12.0690840803
411.5,12.0595715571
412,12.0500578366
412.5,12.0437146906
413,12.0326129026
413.5,12.0230957838
414,12.0167503705
414.5,12.0072312484
415,11.9961240848
415.5,11.989776398
416,11.9834281754
416.5,11.9723174954
417,11.962792747
417.5,11.9596175623
418,11.9485033575
418.5,11.940563631
419,11.9310348486
419.5,11.9215048534
420,11.9167394006
420.5,11.9072075841
421,11.8944966043
421.5,11.8913185213
422,11.8817834605
422.5,11.8738366456
423,11.8690681502
423.5,11.8531709612
424,11.8468111352
424.5,11.8420409091
425,11.8309091916
425.5,11.8197758069
426,11.8150038454
426.5,11.8054590022
427,11.7990950912
427.5,11.7927306341
428,11.7831829235
428.5,11.7736339823
429,11.7672673371
429.5,11.75930826
430,11.7481641128
430.5,11.7433875351
431,11.733833453
431.5,11.7258707731
432,11.7195000103
432.5,11.7115357826
433,11.7019775731
433.5,11.6940114507
434,11.6908247603
434.5,11.6828574305
435,11.6717017183
435.5,11.6605443122
436,11.6541678903
436.5,11.6446022185
437,11.6430078186
437.5,11.6350352988
438,11.6286566586
438.5,11.6158977112
439,11.6095174035
439.5,11.6015412361
440,11.5903731396
440.5,11.5855862899
441,11.5776075097
441.5,11.5728198229
442,11.5632435066
442.5,11.5568585969
443,11.5504731278
443.5,11.5424905042
444,11.5297164853
444.5,11.5233286347
445,11.5121485452
445.5,11.5105512492
446,11.5009667349
446.5,11.4945763557
447,11.4833918373
447.5,11.4785979441
448,11.4706074173
448.5,11.4626160089
449,11.4546237183
449.5,11.44822925
450,11.4402353695
450.5,11.4306415456
451,11.4210464472
451.5,11.4178477976
452,11.4098505533
452.5,11.4034521193
453,11.3954532781
453.5,11.390653547
454,11.3794529305
454.5,11.3682505704
455,11.3666500908
455.5,11.353844971
456,11.3490424627
456.5,11.3426386186
457,11.3426386186
457.5,11.3266265078
458,11.3218221774
458.5,11.3106108204
459,11.3042035427
459.5,11.3026016336
460,11.2913872663
460.5,11.284978267
461,11.2801711404
461.5,11.2737611352
462,11.2625422418
462.5,11.2545276669
463,11.2497184897
463.5,11.2400991622
464,11.2352890116
464.5,11.2288749721
465,11.2208566103
465.5,11.2176490126
466,11.2064212818
466.5,11.1951917776
467,11.1919830219
467.5,11.1823558846
468,11.1759370677
468.5,11.1711225739
469,11.1663077533
469.5,11.1550718999
470,11.1470451993
470.5,11.1390175887
471,11.1342005852
471.5,11.1229596346
472,11.1213536386
472.5,11.1133231111
473,11.1052916707
473.5,11.0972593165
474,11.0940461188
474.5,11.0844056474
475,11.0779779341
475.5,11.0683352646
476,11.0619060848
476.5,11.0570838145
477,11.0506536067
477.5,11.0410071925
478,11.0345755143
478.5,11.0313594544
479,11.0217103909
479.5,11.0120600009
480,11.0040169951
480.5,10.9959730665
481,10.9943641699
481.5,10.986319133
482,10.9782731717
482.5,10.973445151
483,10.9653977092
483.5,10.9605687996
484,10.947690076
484.5,10.947690076
485,10.9396396677
485.5,10.9315883308
486,10.9283675359
486.5,10.9219254999
487,10.9122613295
487.5,10.9058178045
488,10.8993736833
488.5,10.8880950354
489,10.8880950354
489.5,10.8768145584
490,10.8719795078
490.5,10.8655322503
491,10.8558602416
491.5,10.8526359391
492,10.8510237318
492.5,10.8397372308
493,10.8365121788
493.5,10.8252233147
494,10.8219975871
494.5,10.8155456809
495,10.8107063566
495.5,10.8026400639
496,10.7929592704
496.5,10.7865046547
497,10.7784355369
497.5,10.7735936136
498,10.7639087476
498.5,10.7606801568
499,10.7526080183
499.5,10.7477642814
500,10.7396906297
500.5,10.730000998
501,10.7267708176
501.5,10.7203100018
502,10.7122331284
502.5,10.7057709463
503,10.6976923638
503.5,10.6912288134
504,10.6863807512
504.5,10.6815323465
505,10.6750672736
505.5,10.6702180689
506,10.6605186301
506.5,10.6556683956
507,10.6508178176
507.5,10.6394984651
508,10.6378812619
508.5,10.6281772392
509,10.6249422588
509.5,10.6136186211
510,10.6087650586
510.5,10.6006750209
511,10.5958205378
511.5,10.5893473561
512,10.5844920664
512.5,10.5747804491
513,10.5683052682
513.5,10.5618294713
514,10.5521146203
514.5,10.5391593261
515,10.5326807528
515.5,10.5245816669
516,10.5245816669
516.5,10.5116211188
517,10.5035195186
517.5,10.4986580936
518,10.4905549435
518.5,10.4824508238
519,10.4711034258
519.5,10.4662396725
520,10.4581326394
520.5,10.4484029157
521,10.445159363
521.5,10.4338057012
522,10.4240724704
522.5,10.4175828693
523,10.4110926432
523.5,10.4029789813
524,10.3981103149
524.5,10.3948643416
525,10.3851254823
525.5,10.3786321259
526,10.3688909152
526.5,10.3640197802
527,10.3591482919
527.5,10.3542764501
528,10.3461559278
528.5,10.3380344224
529,10.3347855449
529.5,10.3266626619
530,10.323413233
530.5,10.3201636464
531,10.3136640002
531.5,10.3039133474
532,10.2974121226
532.5,10.2941612732
533,10.2892847027
